Wavelength (nm),Channel g (%),Channel r (%),Channel i (%),Channel z (%)
350.0,12.641878758026598,0.0,0.0,0.0
357.57575757575756,20.525337935816182,0.0,0.0,0.0
365.1515151515151,30.79316898161139,0.0,0.0,0.0
372.72727272727275,43.93436807967418,0.0,0.0,0.0
380.3030303030303,56.87708547074399,0.0,0.0,0.0
387.8787878787879,66.7158283532268,0.0,0.0,0.0
395.45454545454544,73.23673017483061,0.0,0.0,0.0
403.030303030303,77.63254104228629,0.0,0.0,0.0
410.6060606060606,79.9625573285311,0.0,0.0,0.0
418.1818181818182,81.15499511005298,0.0,0.0,0.0
425.75757575757575,82.13964101683344,0.0,0.0,0.0
433.33333333333337,81.78504389180266,0.0,0.0,0.0
440.9090909090909,81.04931320017987,0.0,0.0,0.0
448.4848484848485,80.07439129769828,0.12924096996506068,0.0,0.0
456.06060606060606,79.21231325082097,0.18127262459868093,0.009368891118683815,0.0
463.6363636363636,78.51352191703577,0.22880515171643184,0.009142500253285574,0.0
471.21212121212125,78.1173624519617,0.24771059644842874,0.008918076675889862,0.0
478.78787878787875,78.02911255496481,0.2823826707065038,0.009078077615051168,0.0
486.3636363636364,78.1479918160053,0.24186736987349713,0.009918658094579638,0.0
493.93939393939394,78.61158078440846,0.1801824345479513,0.010360481107184781,0.0
501.5151515151515,79.1116675629787,0.23367283466270172,0.009622534044364606,0.0
509.0909090909091,79.99694775088005,0.21601319591459145,0.008767769813274819,0.0
516.6666666666667,80.51164556342819,0.2614336743288031,0.009138288181792237,0.0
524.2424242424242,80.25788377721642,0.9225395625768235,0.010202821030490316,0.0
531.8181818181818,72.21038094569849,9.025088993924202,0.01052176423929835,0.0
539.3939393939394,49.36536404391075,36.80944994052413,0.010260242771702118,9.377271769300248e-05
546.969696969697,26.965410137807744,62.14764515480745,0.010003219692424604,6.921059022753695e-05
554.5454545454545,5.823851771197488,88.92879583495329,0.009674034106940066,3.5114198386221e-05
562.1212121212121,1.8305281516848853,92.52863597110102,0.009115652748146083,5.1782883600199004e-05
569.6969696969697,1.7186713544050183,92.80971728488228,0.009014122218015534,6.805822206149681e-05
577.2727272727273,1.3550207213330083,92.64626186734257,0.009288020202703123,4.599674195001464e-05
584.8484848484849,1.055167894790816,92.45468430241812,0.011512469713167413,6.7219368939137375e-06
592.4242424242425,0.9485610304421516,92.08798543325467,0.018677165178619455,2.62109496781785e-05
600.0,0.864874012305231,91.71571000875299,0.04783288803713911,5.8985019792154764e-05
607.5757575757575,0.6991195671213568,89.88925078954483,0.4519238561358388,0.000947669798681221
615.1515151515152,0.6815834134285953,89.15397887340242,0.6355884963786896,0.006155397490782832
622.7272727272727,0.7461919131625504,88.611634797715,0.37332043587917424,0.011955809488362154
630.3030303030303,0.7677507912699936,87.6646625164734,0.2657437346753689,0.012350547297191669
637.8787878787879,0.6503595198938273,86.70148621911193,0.32266917226323555,0.008867008346652213
645.4545454545455,0.4942800243385144,85.32659906707683,0.8108785924020456,0.008741202995720274
653.030303030303,0.3583849689702631,83.75558084896315,1.4376052037401468,0.01169362004797972
660.6060606060606,0.33698864706043685,80.68976199947694,3.233287293938759,0.019015337443389513
668.1818181818182,0.23978547880925938,71.14372488337499,11.371727213832324,0.03229675073653137
675.7575757575758,0.1300973717357614,54.42418541164964,27.24543757635052,0.0439367176628401
683.3333333333334,0.037934021614853056,41.47615255255873,39.773718057876515,0.07680544345557631
690.909090909091,0.0,35.21859065877905,45.28238536340157,0.12091370295165267
698.4848484848485,0.0,17.359969058858102,62.61875243066929,0.24069784844850917
706.060606060606,0.0,2.790538150872406,77.2443033204947,0.32502609172581665
713.6363636363636,0.0,1.7232926570357516,77.38918257396867,0.2969050105629938
721.2121212121212,0.0,1.6512578079578188,76.15477277790215,0.29483105349524774
728.7878787878788,0.0,1.5114791554661222,74.88996191917732,0.3206291124597368
736.3636363636364,0.0,1.063012945409945,73.85140073569181,0.2933402340894033
743.939393939394,0.0,1.112578624689502,72.27013626427528,0.2534819888191366
751.5151515151515,0.0,1.224753773128954,70.67379763514397,0.17609524852059436
759.0909090909091,0.0,1.093580232967546,69.3473985375137,0.16498356027681585
766.6666666666667,0.0,1.036298649723043,67.7886088275297,0.23135777030223134
774.2424242424242,0.0,0.776546507512939,66.23009130353114,0.2471539495439734
781.8181818181818,0.0,0.6747667831085072,65.16506840931284,0.21461436952728255
789.3939393939395,0.0,0.5622595105452579,63.676656518077024,0.27631529468708715
796.969696969697,0.0,0.6119121603324393,61.57552623443373,0.4789131047008356
804.5454545454545,0.0,0.5394694488698533,58.74148422013433,1.2598873632392193
812.1212121212121,0.0,0.38438308450571307,53.68943834822056,4.3555381677371985
819.6969696969697,0.0,0.35138303970418705,44.38948823499314,11.55614725538796
827.2727272727273,0.0,0.2641135802987361,33.280206583872626,20.867602292681507
834.8484848484849,0.0,0.3176135355601482,23.133679688835098,28.849331461926088
842.4242424242425,0.0,0.41861374800031453,12.924345556069794,36.77560821641537
850.0,0.0,0.4200540176907988,4.11851225257465,43.49740477276519
857.5757575757576,0.0,0.45103206871312973,1.3688853505929814,43.80887566066291
865.1515151515151,0.0,0.2784549563273892,1.0768519935841148,41.74971222435087
872.7272727272727,0.0,0.12924534553233688,0.9149788025566036,39.57621809925737
880.3030303030304,0.0,0.10096123367258578,0.7342972981514981,37.19826837925574
887.8787878787879,0.0,0.11368259533888288,0.6536772482491553,34.64060335052165
895.4545454545455,0.0,0.10844389327179967,0.6067316832951991,32.29666409033115
903.030303030303,0.0,0.0954223033562383,0.5852475867641765,30.0884148223512
910.6060606060606,0.0,0.1252328879107237,0.5667045713336071,27.746667759925487
918.1818181818182,0.0,0.17429996751605586,0.5225860534218004,25.390497152430967
925.7575757575758,0.0,0.16368996323275997,0.45635200103487994,23.171143368672364
933.3333333333334,0.0,0.1092311453748128,0.37612806072559757,21.05589568296414
940.909090909091,0.0,0.06469678051445332,0.30928602562124924,19.07205260162904
948.4848484848485,0.0,0.04589908818307799,0.2629152899798676,17.029815403094727
956.0606060606061,0.0,0.03860178346936889,0.22873565289394626,15.0460336269881
963.6363636363636,0.0,0.029802462005096664,0.19284205115849917,13.352599911354869
971.2121212121212,0.0,0.023837978786116668,0.1584208930420141,11.714345660132144
978.7878787878789,0.0,0.02038497050273716,0.13006173496881746,10.130117967177577
986.3636363636364,0.0,0.015987501033702736,0.10678470090780845,8.654183097581445
993.939393939394,0.0,0.012337421302264541,0.08973043391459454,7.308981484682688
1001.5151515151515,0.0,0.010737812398787605,0.08297663834903597,6.071104674394789
1009.0909090909091,0.0,0.008604330118457414,0.07846484776825967,4.976795944703613
1016.6666666666667,0.0,0.0058200200694744665,0.06999321586267378,4.015109876297954
1024.2424242424242,0.0,0.0038529446280647062,0.05794326159213894,3.1806744578040993
1031.818181818182,0.0,0.002707835811682769,0.044966329985516806,2.4746796169268426
1039.3939393939395,0.0,0.0019538012853562033,0.032192137594976036,1.879647819053358
1046.969696969697,0.0,0.0013866143735009086,0.020863054419962564,1.394620596730942
1054.5454545454545,0.0,0.0008724100642606314,0.013206536852260612,1.0107135955110045
1062.121212121212,0.0,0.0004896730043995361,0.0084910385777109,0.7182946893347875
1069.6969696969697,0.0,0.00032252107237115116,0.004893861777899033,0.49538903308392385
1077.2727272727273,0.0,0.00018298830212269414,0.0023484916091211223,0.3351621756033095
1084.848484848485,0.0,2.4864600086045373e-05,0.001369401387301676,0.22995585297148322
1092.4242424242425,0.0,0.0,0.001780140304231145,0.1644065950543706
1100.0,0.0,0.0,0.0031172752203725692,0.12385629203577493
